,#WAVELENGTH,FLUX,UNCERTAINTY
0,0.9,0.42114991830744386,0.058404354122138694
1,0.906,0.48183374232584275,0.056600852212640634
2,0.91204,0.5484778253705214,0.05644913054376274
3,0.9181202666666664,0.575834004733922,0.08123110761519697
4,0.9242410684444442,0.5593975156032316,0.04523500328033065
5,0.9304026755674072,0.5529204595236182,0.07073987244957668
6,0.9366053600711898,0.5448687402468801,0.08850198993294217
7,0.9428493958049976,0.5960321274139943,0.07306352644425548
8,0.9491350584436976,0.6843657039214471,0.06301618417638279
9,0.9554626254999888,0.680806256530129,0.08708102823932798
10,0.9618323763366552,0.6413025248716822,0.05530762631755161
11,0.9682445921788996,0.6741172423309759,0.06766242294228833
12,0.9746995561267588,0.6966306108070868,0.056566184067819186
13,0.9811975531676038,0.7624061407912971,0.05068906417463083
14,0.9877388701887212,0.6545104560003102,0.04895780442685611
15,0.9943237959899792,0.5478415104421401,0.0562456400541982
16,1.000952621296579,0.6080240593758774,0.07186232371129081
17,1.0076256387718894,0.6886701544924865,0.05757995307520259
18,1.0143431430303689,0.6890522036294101,0.06093896695767976
19,1.0211054306505711,0.6870310534567702,0.056350526350455094
20,1.0279128001882416,0.6956686337560032,0.044900171160863624
21,1.0347655521894965,0.7717547917520772,0.04836025805444116
22,1.041663989204093,0.786313460159295,0.06518489947831548
23,1.048608415798787,0.8322203415899276,0.037439904043591196
24,1.0555991385707788,0.8515197204084219,0.03964249404303001
25,1.0626364661612506,0.8693894076860108,0.038871384931478715
26,1.0697207092689922,0.8799938948116017,0.04672370552205961
27,1.0768521806641187,0.8912798173522063,0.04465956183792278
28,1.0840311952018795,0.9510837147231842,0.07212473534621473
29,1.0912580698365586,0.9502579059613974,0.054025804269949115
30,1.098533123635469,0.880368055992832,0.1305459196434079
31,1.1058566777930388,0.8965931763233413,0.07344604803901611
32,1.1132290556449922,0.8227477640978306,0.12915317478177324
33,1.1206505826826254,0.820109220033044,0.05301289708658574
34,1.128121586567176,0.8406359537308964,0.05915139550862821
35,1.1356423971442906,0.8368274287410108,0.4682424053474642
36,1.143213346458586,0.7862772246911096,0.27638364888932115
37,1.1508347687683096,0.85857293201818,0.11318288872668594
38,1.158507000560098,0.9000535729025062,0.045617575463851354
39,1.166230380563832,0.8340056000690225,0.06927699826067603
40,1.1740052497675908,0.8504303260824596,0.036464114512076394
41,1.181831951432708,0.8602258807350085,0.06162726948925671
42,1.189710831108926,0.8965980599499269,0.05492695158938877
43,1.197642236649652,0.8432379164376028,0.04667175924653475
44,1.2056265182273165,0.8773949103438224,0.05997137772398008
45,1.2136640283488316,0.9169057100406551,0.04758824531066305
46,1.221755121871157,0.9259115230481526,0.05435243192299797
47,1.229900156016965,0.9462517445384562,0.10512827998445065
48,1.238099490390411,0.9059463090396337,0.04688419699399417
49,1.2463534869930135,0.8802371394514968,0.04946593743843043
50,1.2546625102396338,0.8986249762346025,0.05018613492142138
51,1.2630269269745646,0.94731087480405,0.06466778061133398
52,1.2714471064877284,0.9929793078786903,0.0693619601207315
53,1.2799234205309795,0.9623181084199233,0.04310905602366556
54,1.2884562433345197,0.9595533796911444,0.24895993965722615
55,1.297045951623416,1.0,0.08175444385073306
56,1.3056929246342388,0.9695159635969852,0.04743315148608216
57,1.3143975441318003,0.9414534137474471,0.05608977916535387
58,1.3231601944260123,0.9085675480508385,0.05081044131340784
59,1.3319812623888525,0.6816149134514616,0.0391761684558195
60,1.3408611374714443,0.5329303439289015,0.042271310942301604
61,1.349800211721254,0.364795640993754,0.06893175509808883
62,1.3587988797993955,0.35376870198436877,0.0868927331166711
63,1.367857538998058,0.439399127654809,0.1329282215084854
64,1.376976589258045,0.39814082142427126,0.09124292247135299
65,1.3861564331864318,0.4941734642198524,0.16550870992259314
66,1.3953974760743413,0.37734244347922374,0.06435749399156013
67,1.4047001259148368,0.4334905238089435,0.06030982416642134
68,1.4140647934209356,0.42808324146526544,0.08261219528290945
69,1.4234918920437418,0.41583732798354633,0.0655092688911695
70,1.4329818379907,0.38303161611200465,0.07217546525366729
71,1.442535050243971,0.4333187113140982,0.030298375311609584
72,1.452151950578931,0.51769487389142,0.05373782622629056
73,1.4618329635827905,0.4596778004773273,0.042104791718283054
74,1.4715785166733424,0.46744974121395044,0.04414615786055623
75,1.4813890401178311,0.4487075669664338,0.37360715454054294
76,1.49126496705195,0.48958900546690703,0.09770592772893585
77,1.501206733498963,0.5006252079969158,0.05237934705665369
78,1.511214778388956,0.5016035264956713,0.05237656569144922
79,1.5212895435782157,0.49139466265761633,0.03645889243616404
80,1.531431473868737,0.5009047868105201,0.5205279831222865
81,1.5416410170278616,0.4886173496994232,0.06585783289969063
82,1.5519186238080471,0.5373904261387414,0.06639203736930395
83,1.5622647479667675,0.5771535033856197,0.03884646076611863
84,1.572679846286546,0.5793530693461628,0.037988536065338974
85,1.5831643785951228,0.5810120986831213,0.6862640718101329
86,1.593718807785757,0.5782578871829713,0.04918572688035157
87,1.6043435998376618,0.5901374815837286,0.049572607574591566
88,1.6150392238365794,0.5960507277140291,0.08810099885162141
89,1.6258061519954898,0.5838056640525845,0.04247740705530379
90,1.6366448596754597,0.5813775268958687,0.042119248184311446
91,1.6475558254066294,0.5487129326908893,0.05408088471543445
92,1.65853953090934,0.536267322858571,0.050821668029270496
93,1.6695964611154022,0.5125020762182194,0.09498723002483143
94,1.6807271041895049,0.5156998419322422,0.09663421337904292
95,1.6919319515507678,0.4938438759087391,0.08127497830636268
96,1.7032114978944397,0.443923528680281,0.09840563836160775
97,1.7145662412137357,0.4411136647866483,0.03022064242241461
98,1.7259966828218272,0.4346773327997124,0.027443143528401576
99,1.7375033273739726,0.39757292030219327,0.08985818219183091
100,1.749086682889799,0.4030386448945568,0.03192511905730469
101,1.7607472607757308,0.3648078914220134,0.036093905243336645
102,1.7724855758475688,0.3211525926417331,0.026767411100565592
103,1.7843021463532192,0.25279703008772847,0.13352748904526443
104,1.7961974939955738,0.24770896055483993,0.02508367080580496
105,1.8081721439555445,0.2288586392149677,0.04134978640707396
106,1.8202266249152477,0.21034990399001763,0.02890260457565876
107,1.8323614690813492,0.1253662380555275,0.04301062265865041
108,1.8445772122085584,0.231154971297246,0.0765774562824734
109,1.856874393623282,0.1804928823899982,0.058334633604195954
110,1.869253556247437,0.1418747563035203,0.378165541526977
111,1.88171524662242,0.20507252390394112,0.13904490069103112
112,1.894260014933236,0.15830079581749767,0.03762994716990019
113,1.9068884150327905,0.2219937411934102,0.08441949470903522
114,1.9196010044663423,0.246542686262091,0.04988680912948538
115,1.9323983444961177,0.19133566614883987,0.04192640692155812
116,1.9452810001260916,0.20165425242815357,0.017818121402470872
117,1.958249540126932,0.18077011553951888,0.02567540372462254
118,1.9713045370611115,0.22175877554599516,0.029928053367429406
119,1.9844465673081857,0.1846524886449916,0.14387142960777688
120,1.99767621109024,0.165591902927093,0.025295684068523543
121,2.0109940524975083,0.19001765300939463,0.029734535380237407
122,2.0244006795141583,0.2313647702112765,0.031219478712797233
123,2.0378966840442523,0.20964964318975798,0.019793103624010263
124,2.0514826619378805,0.2008910243563964,0.02409927536537088
125,2.0651592130174663,0.20352552184611383,0.016589214575400867
126,2.0789269411042492,0.21355898949457722,0.018648311361119593
127,2.092786454044944,0.20306682361280462,0.042043429284917305
128,2.106738363738577,0.20001861527178638,0.021979240268225165
129,2.1207832861635008,0.21163946152231383,0.029528501976828447
130,2.1349218414045907,0.21500262288519223,0.008564927026331768
131,2.149154653680621,0.2143442445469177,0.027703070360069904
132,2.163482351371825,0.2217368375864652,0.010803682235969605
133,2.1779055670476373,0.21162965670534573,0.015927114724122927
134,2.1924249374946214,0.20415319208334887,0.012796393657337795
135,2.2070411037445856,0.19719352263724063,0.01076858742941505
136,2.2217547111028826,0.17762767086383402,0.0609394161176946
137,2.2365664091769015,0.18680026705296618,0.03174395245434303
138,2.251476851904747,0.1758757759361084,0.0364046642535924
139,2.2664866975841123,0.17702949808421728,0.01071646851336652
140,2.2815966089013395,0.16655364499891986,0.17102883501875965
141,2.2968072529606816,0.16104588012341503,0.019062880304849508
142,2.3121193013137527,0.14970089652419494,0.010015692810710838
143,2.3275334299891774,0.1427520279429664,0.026017276665220624
144,2.3430503195224386,0.12550241999940576,0.025055224480267778
145,2.3586706549859215,0.13228206323084252,0.06105900223145829
146,2.3743951260191607,0.09904528609838059,0.04214382089610377
147,2.3902244268592883,0.11529134775394477,0.022959072796071636
148,2.406159256371683,-0.1167271053789232,0.37969998649284753
149,2.4222003180808276,-0.5102230190618009,0.18336115992424612
150,2.4383483202013663,-3.7288416696381574,12.76370673407895
151,2.454603975669375,-5.92156168028313,9.042009734246927
